#  E (eV)   dos(E)     Int dos(E) EFermi =    1.807 eV
 -60.013  0.3218E-03  0.1609E-05
 -60.008  0.3601E-03  0.3409E-05
 -60.003  0.4028E-03  0.5423E-05
 -59.998  0.4501E-03  0.7674E-05
 -59.993  0.5028E-03  0.1019E-04
 -59.988  0.5612E-03  0.1299E-04
 -59.983  0.6259E-03  0.1612E-04
 -59.978  0.6977E-03  0.1961E-04
 -59.973  0.7771E-03  0.2350E-04
 -59.968  0.8651E-03  0.2782E-04
 -59.963  0.9623E-03  0.3263E-04
 -59.958  0.1070E-02  0.3798E-04
 -59.953  0.1188E-02  0.4392E-04
 -59.948  0.1319E-02  0.5052E-04
 -59.943  0.1464E-02  0.5784E-04
 -59.938  0.1623E-02  0.6595E-04
 -59.933  0.1798E-02  0.7494E-04
 -59.928  0.1990E-02  0.8489E-04
 -59.923  0.2202E-02  0.9590E-04
 -59.918  0.2435E-02  0.1081E-03
 -59.913  0.2690E-02  0.1215E-03
 -59.908  0.2971E-02  0.1364E-03
 -59.903  0.3278E-02  0.1528E-03
 -59.898  0.3615E-02  0.1708E-03
 -59.893  0.3983E-02  0.1908E-03
 -59.888  0.4386E-02  0.2127E-03
 -59.883  0.4827E-02  0.2368E-03
 -59.878  0.5308E-02  0.2634E-03
 -59.873  0.5834E-02  0.2925E-03
 -59.868  0.6407E-02  0.3246E-03
 -59.863  0.7032E-02  0.3597E-03
 -59.858  0.7712E-02  0.3983E-03
 -59.853  0.8453E-02  0.4406E-03
 -59.848  0.9258E-02  0.4869E-03
 -59.843  0.1013E-01  0.5375E-03
 -59.838  0.1108E-01  0.5929E-03
 -59.833  0.1212E-01  0.6535E-03
 -59.828  0.1324E-01  0.7197E-03
 -59.823  0.1445E-01  0.7919E-03
 -59.818  0.1576E-01  0.8707E-03
 -59.813  0.1718E-01  0.9566E-03
 -59.808  0.1872E-01  0.1050E-02
 -59.803  0.2038E-01  0.1152E-02
 -59.798  0.2217E-01  0.1263E-02
 -59.793  0.2410E-01  0.1383E-02
 -59.788  0.2619E-01  0.1514E-02
 -59.783  0.2843E-01  0.1657E-02
 -59.778  0.3085E-01  0.1811E-02
 -59.773  0.3345E-01  0.1978E-02
 -59.768  0.3624E-01  0.2159E-02
 -59.763  0.3925E-01  0.2356E-02
 -59.758  0.4247E-01  0.2568E-02
 -59.753  0.4592E-01  0.2797E-02
 -59.748  0.4963E-01  0.3046E-02
 -59.743  0.5359E-01  0.3314E-02
 -59.738  0.5784E-01  0.3603E-02
 -59.733  0.6237E-01  0.3915E-02
 -59.728  0.6722E-01  0.4251E-02
 -59.723  0.7240E-01  0.4613E-02
 -59.718  0.7792E-01  0.5002E-02
 -59.713  0.8381E-01  0.5421E-02
 -59.708  0.9008E-01  0.5872E-02
 -59.703  0.9675E-01  0.6355E-02
 -59.698  0.1039E+00  0.6875E-02
 -59.693  0.1114E+00  0.7432E-02
 -59.688  0.1194E+00  0.8029E-02
 -59.683  0.1279E+00  0.8668E-02
 -59.678  0.1369E+00  0.9353E-02
 -59.673  0.1465E+00  0.1009E-01
 -59.668  0.1566E+00  0.1087E-01
 -59.663  0.1673E+00  0.1170E-01
 -59.658  0.1786E+00  0.1260E-01
 -59.653  0.1906E+00  0.1355E-01
 -59.648  0.2032E+00  0.1457E-01
 -59.643  0.2165E+00  0.1565E-01
 -59.638  0.2305E+00  0.1680E-01
 -59.633  0.2452E+00  0.1803E-01
 -59.628  0.2608E+00  0.1933E-01
 -59.623  0.2771E+00  0.2072E-01
 -59.618  0.2942E+00  0.2219E-01
 -59.613  0.3122E+00  0.2375E-01
 -59.608  0.3311E+00  0.2540E-01
 -59.603  0.3509E+00  0.2716E-01
 -59.598  0.3716E+00  0.2902E-01
 -59.593  0.3932E+00  0.3098E-01
 -59.588  0.4159E+00  0.3306E-01
 -59.583  0.4395E+00  0.3526E-01
 -59.578  0.4642E+00  0.3758E-01
 -59.573  0.4900E+00  0.4003E-01
 -59.568  0.5168E+00  0.4261E-01
 -59.563  0.5447E+00  0.4534E-01
 -59.558  0.5738E+00  0.4821E-01
 -59.553  0.6039E+00  0.5123E-01
 -59.548  0.6353E+00  0.5440E-01
 -59.543  0.6678E+00  0.5774E-01
 -59.538  0.7015E+00  0.6125E-01
 -59.533  0.7364E+00  0.6493E-01
 -59.528  0.7726E+00  0.6879E-01
 -59.523  0.8100E+00  0.7284E-01
 -59.518  0.8486E+00  0.7709E-01
 -59.513  0.8884E+00  0.8153E-01
 -59.508  0.9295E+00  0.8618E-01
 -59.503  0.9718E+00  0.9104E-01
 -59.498  0.1015E+01  0.9611E-01
 -59.493  0.1060E+01  0.1014E+00
 -59.488  0.1106E+01  0.1069E+00
 -59.483  0.1154E+01  0.1127E+00
 -59.478  0.1202E+01  0.1187E+00
 -59.473  0.1252E+01  0.1250E+00
 -59.468  0.1303E+01  0.1315E+00
 -59.463  0.1355E+01  0.1383E+00
 -59.458  0.1408E+01  0.1453E+00
 -59.453  0.1462E+01  0.1526E+00
 -59.448  0.1517E+01  0.1602E+00
 -59.443  0.1574E+01  0.1681E+00
 -59.438  0.1631E+01  0.1762E+00
 -59.433  0.1689E+01  0.1847E+00
 -59.428  0.1748E+01  0.1934E+00
 -59.423  0.1808E+01  0.2025E+00
 -59.418  0.1869E+01  0.2118E+00
 -59.413  0.1931E+01  0.2214E+00
 -59.408  0.1993E+01  0.2314E+00
 -59.403  0.2056E+01  0.2417E+00
 -59.398  0.2119E+01  0.2523E+00
 -59.393  0.2183E+01  0.2632E+00
 -59.388  0.2248E+01  0.2744E+00
 -59.383  0.2312E+01  0.2860E+00
 -59.378  0.2377E+01  0.2979E+00
 -59.373  0.2442E+01  0.3101E+00
 -59.368  0.2507E+01  0.3226E+00
 -59.363  0.2573E+01  0.3355E+00
 -59.358  0.2638E+01  0.3487E+00
 -59.353  0.2703E+01  0.3622E+00
 -59.348  0.2767E+01  0.3760E+00
 -59.343  0.2832E+01  0.3902E+00
 -59.338  0.2896E+01  0.4047E+00
 -59.333  0.2959E+01  0.4195E+00
 -59.328  0.3022E+01  0.4346E+00
 -59.323  0.3083E+01  0.4500E+00
 -59.318  0.3145E+01  0.4657E+00
 -59.313  0.3205E+01  0.4817E+00
 -59.308  0.3264E+01  0.4981E+00
 -59.303  0.3322E+01  0.5147E+00
 -59.298  0.3378E+01  0.5316E+00
 -59.293  0.3434E+01  0.5487E+00
 -59.288  0.3487E+01  0.5662E+00
 -59.283  0.3540E+01  0.5839E+00
 -59.278  0.3590E+01  0.6018E+00
 -59.273  0.3639E+01  0.6200E+00
 -59.268  0.3687E+01  0.6384E+00
 -59.263  0.3732E+01  0.6571E+00
 -59.258  0.3775E+01  0.6760E+00
 -59.253  0.3816E+01  0.6951E+00
 -59.248  0.3855E+01  0.7143E+00
 -59.243  0.3892E+01  0.7338E+00
 -59.238  0.3927E+01  0.7534E+00
 -59.233  0.3959E+01  0.7732E+00
 -59.228  0.3988E+01  0.7932E+00
 -59.223  0.4016E+01  0.8132E+00
 -59.218  0.4040E+01  0.8334E+00
 -59.213  0.4062E+01  0.8538E+00
 -59.208  0.4082E+01  0.8742E+00
 -59.203  0.4099E+01  0.8947E+00
 -59.198  0.4113E+01  0.9152E+00
 -59.193  0.4124E+01  0.9358E+00
 -59.188  0.4133E+01  0.9565E+00
 -59.183  0.4139E+01  0.9772E+00
 -59.178  0.4142E+01  0.9979E+00
 -59.173  0.4142E+01  0.1019E+01
 -59.168  0.4140E+01  0.1039E+01
 -59.163  0.4134E+01  0.1060E+01
 -59.158  0.4126E+01  0.1081E+01
 -59.153  0.4115E+01  0.1101E+01
 -59.148  0.4102E+01  0.1122E+01
 -59.143  0.4086E+01  0.1142E+01
 -59.138  0.4067E+01  0.1162E+01
 -59.133  0.4045E+01  0.1183E+01
 -59.128  0.4021E+01  0.1203E+01
 -59.123  0.3994E+01  0.1223E+01
 -59.118  0.3965E+01  0.1243E+01
 -59.113  0.3933E+01  0.1262E+01
 -59.108  0.3899E+01  0.1282E+01
 -59.103  0.3863E+01  0.1301E+01
 -59.098  0.3824E+01  0.1320E+01
 -59.093  0.3784E+01  0.1339E+01
 -59.088  0.3741E+01  0.1358E+01
 -59.083  0.3696E+01  0.1376E+01
 -59.078  0.3649E+01  0.1395E+01
 -59.073  0.3600E+01  0.1413E+01
 -59.068  0.3550E+01  0.1430E+01
 -59.063  0.3498E+01  0.1448E+01
 -59.058  0.3445E+01  0.1465E+01
 -59.053  0.3390E+01  0.1482E+01
 -59.048  0.3333E+01  0.1499E+01
 -59.043  0.3275E+01  0.1515E+01
 -59.038  0.3217E+01  0.1531E+01
 -59.033  0.3157E+01  0.1547E+01
 -59.028  0.3096E+01  0.1562E+01
 -59.023  0.3034E+01  0.1578E+01
 -59.018  0.2972E+01  0.1592E+01
 -59.013  0.2908E+01  0.1607E+01
 -59.008  0.2845E+01  0.1621E+01
 -59.003  0.2780E+01  0.1635E+01
 -58.998  0.2716E+01  0.1649E+01
 -58.993  0.2651E+01  0.1662E+01
 -58.988  0.2586E+01  0.1675E+01
 -58.983  0.2521E+01  0.1687E+01
 -58.978  0.2455E+01  0.1700E+01
 -58.973  0.2390E+01  0.1712E+01
 -58.968  0.2325E+01  0.1723E+01
 -58.963  0.2260E+01  0.1735E+01
 -58.958  0.2196E+01  0.1746E+01
 -58.953  0.2132E+01  0.1756E+01
 -58.948  0.2069E+01  0.1767E+01
 -58.943  0.2006E+01  0.1777E+01
 -58.938  0.1943E+01  0.1786E+01
 -58.933  0.1881E+01  0.1796E+01
 -58.928  0.1820E+01  0.1805E+01
 -58.923  0.1760E+01  0.1814E+01
 -58.918  0.1701E+01  0.1822E+01
 -58.913  0.1642E+01  0.1830E+01
 -58.908  0.1585E+01  0.1838E+01
 -58.903  0.1528E+01  0.1846E+01
 -58.898  0.1473E+01  0.1853E+01
 -58.893  0.1418E+01  0.1860E+01
 -58.888  0.1365E+01  0.1867E+01
 -58.883  0.1313E+01  0.1874E+01
 -58.878  0.1262E+01  0.1880E+01
 -58.873  0.1212E+01  0.1886E+01
 -58.868  0.1163E+01  0.1892E+01
 -58.863  0.1116E+01  0.1897E+01
 -58.858  0.1069E+01  0.1903E+01
 -58.853  0.1024E+01  0.1908E+01
 -58.848  0.9804E+00  0.1913E+01
 -58.843  0.9378E+00  0.1918E+01
 -58.838  0.8965E+00  0.1922E+01
 -58.833  0.8564E+00  0.1926E+01
 -58.828  0.8175E+00  0.1930E+01
 -58.823  0.7799E+00  0.1934E+01
 -58.818  0.7435E+00  0.1938E+01
 -58.813  0.7084E+00  0.1942E+01
 -58.808  0.6744E+00  0.1945E+01
 -58.803  0.6416E+00  0.1948E+01
 -58.798  0.6101E+00  0.1951E+01
 -58.793  0.5796E+00  0.1954E+01
 -58.788  0.5504E+00  0.1957E+01
 -58.783  0.5222E+00  0.1959E+01
 -58.778  0.4952E+00  0.1962E+01
 -58.773  0.4692E+00  0.1964E+01
 -58.768  0.4443E+00  0.1966E+01
 -58.763  0.4205E+00  0.1969E+01
 -58.758  0.3976E+00  0.1971E+01
 -58.753  0.3758E+00  0.1972E+01
 -58.748  0.3549E+00  0.1974E+01
 -58.743  0.3349E+00  0.1976E+01
 -58.738  0.3159E+00  0.1977E+01
 -58.733  0.2977E+00  0.1979E+01
 -58.728  0.2804E+00  0.1980E+01
 -58.723  0.2639E+00  0.1982E+01
 -58.718  0.2482E+00  0.1983E+01
 -58.713  0.2333E+00  0.1984E+01
 -58.708  0.2192E+00  0.1985E+01
 -58.703  0.2057E+00  0.1986E+01
 -58.698  0.1930E+00  0.1987E+01
 -58.693  0.1809E+00  0.1988E+01
 -58.688  0.1695E+00  0.1989E+01
 -58.683  0.1586E+00  0.1990E+01
 -58.678  0.1484E+00  0.1990E+01
 -58.673  0.1388E+00  0.1991E+01
 -58.668  0.1296E+00  0.1992E+01
 -58.663  0.1210E+00  0.1992E+01
 -58.658  0.1129E+00  0.1993E+01
 -58.653  0.1053E+00  0.1994E+01
 -58.648  0.9810E-01  0.1994E+01
 -58.643  0.9134E-01  0.1994E+01
 -58.638  0.8499E-01  0.1995E+01
 -58.633  0.7903E-01  0.1995E+01
 -58.628  0.7344E-01  0.1996E+01
 -58.623  0.6820E-01  0.1996E+01
 -58.618  0.6329E-01  0.1996E+01
 -58.613  0.5869E-01  0.1997E+01
 -58.608  0.5439E-01  0.1997E+01
 -58.603  0.5037E-01  0.1997E+01
 -58.598  0.4662E-01  0.1997E+01
 -58.593  0.4312E-01  0.1998E+01
 -58.588  0.3985E-01  0.1998E+01
 -58.583  0.3681E-01  0.1998E+01
 -58.578  0.3397E-01  0.1998E+01
 -58.573  0.3133E-01  0.1998E+01
 -58.568  0.2888E-01  0.1998E+01
 -58.563  0.2660E-01  0.1999E+01
 -58.558  0.2449E-01  0.1999E+01
 -58.553  0.2253E-01  0.1999E+01
 -58.548  0.2071E-01  0.1999E+01
 -58.543  0.1902E-01  0.1999E+01
 -58.538  0.1747E-01  0.1999E+01
 -58.533  0.1602E-01  0.1999E+01
 -58.528  0.1469E-01  0.1999E+01
 -58.523  0.1346E-01  0.1999E+01
 -58.518  0.1232E-01  0.1999E+01
 -58.513  0.1127E-01  0.1999E+01
 -58.508  0.1031E-01  0.1999E+01
 -58.503  0.9419E-02  0.2000E+01
 -58.498  0.8600E-02  0.2000E+01
 -58.493  0.7848E-02  0.2000E+01
 -58.488  0.7156E-02  0.2000E+01
 -58.483  0.6521E-02  0.2000E+01
 -58.478  0.5938E-02  0.2000E+01
 -58.473  0.5404E-02  0.2000E+01
 -58.468  0.4914E-02  0.2000E+01
 -58.463  0.4466E-02  0.2000E+01
 -58.458  0.4056E-02  0.2000E+01
 -58.453  0.3681E-02  0.2000E+01
 -58.448  0.3339E-02  0.2000E+01
 -58.443  0.3026E-02  0.2000E+01
 -58.438  0.2741E-02  0.2000E+01
 -58.433  0.2481E-02  0.2000E+01
 -58.428  0.2244E-02  0.2000E+01
 -58.423  0.2028E-02  0.2000E+01
 -58.418  0.1832E-02  0.2000E+01
 -58.413  0.1654E-02  0.2000E+01
 -58.408  0.1492E-02  0.2000E+01
 -58.403  0.1345E-02  0.2000E+01
 -58.398  0.1212E-02  0.2000E+01
 -58.393  0.1091E-02  0.2000E+01
 -58.388  0.9814E-03  0.2000E+01
 -58.383  0.8823E-03  0.2000E+01
 -58.378  0.7927E-03  0.2000E+01
 -58.373  0.7117E-03  0.2000E+01
 -58.368  0.6386E-03  0.2000E+01
 -58.363  0.5726E-03  0.2000E+01
 -58.358  0.5131E-03  0.2000E+01
 -58.353  0.4594E-03  0.2000E+01
 -58.348  0.4111E-03  0.2000E+01
 -58.343  0.3676E-03  0.2000E+01
 -58.338  0.3285E-03  0.2000E+01
 -58.333  0.2933E-03  0.2000E+01
 -58.328  0.2618E-03  0.2000E+01
 -58.323  0.2335E-03  0.2000E+01
 -58.318  0.2081E-03  0.2000E+01
 -58.313  0.1853E-03  0.2000E+01
 -58.308  0.1649E-03  0.2000E+01
 -58.303  0.1467E-03  0.2000E+01
 -58.298  0.1304E-03  0.2000E+01
 -58.293  0.1158E-03  0.2000E+01
 -58.288  0.1028E-03  0.2000E+01
 -58.283  0.9117E-04  0.2000E+01
 -58.278  0.8081E-04  0.2000E+01
 -58.273  0.7159E-04  0.2000E+01
 -58.268  0.6337E-04  0.2000E+01
 -58.263  0.5606E-04  0.2000E+01
 -58.258  0.4956E-04  0.2000E+01
 -58.253  0.4378E-04  0.2000E+01
 -58.248  0.3865E-04  0.2000E+01
 -58.243  0.3410E-04  0.2000E+01
 -58.238  0.3006E-04  0.2000E+01
 -58.233  0.2649E-04  0.2000E+01
 -58.228  0.2332E-04  0.2000E+01
 -58.223  0.2052E-04  0.2000E+01
 -58.218  0.1804E-04  0.2000E+01
 -58.213  0.1585E-04  0.2000E+01
 -58.208  0.1392E-04  0.2000E+01
 -58.203  0.1222E-04  0.2000E+01
 -58.198  0.1071E-04  0.2000E+01
 -58.193  0.9387E-05  0.2000E+01
 -58.188  0.8220E-05  0.2000E+01
 -58.183  0.7194E-05  0.2000E+01
 -58.178  0.6291E-05  0.2000E+01
 -58.173  0.5498E-05  0.2000E+01
 -58.168  0.4802E-05  0.2000E+01
 -58.163  0.4191E-05  0.2000E+01
 -58.158  0.3655E-05  0.2000E+01
 -58.153  0.3186E-05  0.2000E+01
 -58.148  0.2775E-05  0.2000E+01
 -58.143  0.2416E-05  0.2000E+01
 -58.138  0.2101E-05  0.2000E+01
 -58.133  0.1826E-05  0.2000E+01
 -58.128  0.1587E-05  0.2000E+01
 -58.123  0.1377E-05  0.2000E+01
 -58.118  0.1195E-05  0.2000E+01
 -58.113  0.1036E-05  0.2000E+01
 -58.108  0.8973E-06  0.2000E+01
 -58.103  0.7769E-06  0.2000E+01
 -58.098  0.6721E-06  0.2000E+01
 -58.093  0.5811E-06  0.2000E+01
 -58.088  0.5021E-06  0.2000E+01
 -58.083  0.4335E-06  0.2000E+01
 -58.078  0.3740E-06  0.2000E+01
 -58.073  0.3225E-06  0.2000E+01
 -58.068  0.2779E-06  0.2000E+01
 -58.063  0.2393E-06  0.2000E+01
 -58.058  0.2059E-06  0.2000E+01
 -58.053  0.1771E-06  0.2000E+01
 -58.048  0.1522E-06  0.2000E+01
 -58.043  0.1307E-06  0.2000E+01
 -58.038  0.1121E-06  0.2000E+01
 -58.033  0.9618E-07  0.2000E+01
 -58.028  0.8243E-07  0.2000E+01
 -58.023  0.7059E-07  0.2000E+01
 -58.018  0.6042E-07  0.2000E+01
 -58.013  0.5168E-07  0.2000E+01
 -58.008  0.4417E-07  0.2000E+01
 -58.003  0.3773E-07  0.2000E+01
 -57.998  0.3220E-07  0.2000E+01
 -57.993  0.2747E-07  0.2000E+01
 -57.988  0.2342E-07  0.2000E+01
 -57.983  0.1995E-07  0.2000E+01
 -57.978  0.1698E-07  0.2000E+01
 -57.973  0.1445E-07  0.2000E+01
 -57.968  0.1228E-07  0.2000E+01
 -57.963  0.1043E-07  0.2000E+01
 -57.958  0.8857E-08  0.2000E+01
 -57.953  0.7515E-08  0.2000E+01
 -57.948  0.6371E-08  0.2000E+01
 -57.943  0.5398E-08  0.2000E+01
 -57.938  0.4571E-08  0.2000E+01
 -57.933  0.3867E-08  0.2000E+01
 -57.928  0.3270E-08  0.2000E+01
 -57.923  0.2763E-08  0.2000E+01
 -57.918  0.2333E-08  0.2000E+01
 -57.913  0.1969E-08  0.2000E+01
 -57.908  0.1660E-08  0.2000E+01
 -57.903  0.1399E-08  0.2000E+01
 -57.898  0.1178E-08  0.2000E+01
 -57.893  0.9916E-09  0.2000E+01
 -57.888  0.8340E-09  0.2000E+01
 -57.883  0.7009E-09  0.2000E+01
 -57.878  0.5887E-09  0.2000E+01
 -57.873  0.4941E-09  0.2000E+01
 -57.868  0.4144E-09  0.2000E+01
 -57.863  0.3473E-09  0.2000E+01
 -57.858  0.2909E-09  0.2000E+01
 -57.853  0.2435E-09  0.2000E+01
 -57.848  0.2037E-09  0.2000E+01
 -57.843  0.1703E-09  0.2000E+01
 -57.838  0.1422E-09  0.2000E+01
 -57.833  0.1187E-09  0.2000E+01
 -57.828  0.9906E-10  0.2000E+01
 -57.823  0.8259E-10  0.2000E+01
 -57.818  0.6880E-10  0.2000E+01
 -57.813  0.5728E-10  0.2000E+01
 -57.808  0.4766E-10  0.2000E+01
 -57.803  0.3962E-10  0.2000E+01
 -57.798  0.3292E-10  0.2000E+01
 -57.793  0.2734E-10  0.2000E+01
 -57.788  0.2268E-10  0.2000E+01
 -57.783  0.1881E-10  0.2000E+01
 -57.778  0.1558E-10  0.2000E+01
 -57.773  0.1290E-10  0.2000E+01
 -57.768  0.1068E-10  0.2000E+01
 -57.763  0.8831E-11  0.2000E+01
 -57.758  0.7298E-11  0.2000E+01
 -57.753  0.6027E-11  0.2000E+01
 -57.748  0.4974E-11  0.2000E+01
 -57.743  0.4102E-11  0.2000E+01
 -57.738  0.3381E-11  0.2000E+01
 -57.733  0.2784E-11  0.2000E+01
 -57.728  0.2292E-11  0.2000E+01
 -57.723  0.1885E-11  0.2000E+01
 -57.718  0.1549E-11  0.2000E+01
 -57.713  0.1273E-11  0.2000E+01
 -57.708  0.1045E-11  0.2000E+01
 -57.703  0.8569E-12  0.2000E+01
 -57.698  0.7024E-12  0.2000E+01
 -57.693  0.5754E-12  0.2000E+01
 -57.688  0.4711E-12  0.2000E+01
 -57.683  0.3854E-12  0.2000E+01
 -57.678  0.3150E-12  0.2000E+01
 -57.673  0.2574E-12  0.2000E+01
 -57.668  0.2101E-12  0.2000E+01
 -57.663  0.1714E-12  0.2000E+01
 -57.658  0.1398E-12  0.2000E+01
 -57.653  0.1139E-12  0.2000E+01
 -57.648  0.9273E-13  0.2000E+01
 -57.643  0.7545E-13  0.2000E+01
 -57.638  0.6135E-13  0.2000E+01
 -57.633  0.4986E-13  0.2000E+01
 -57.628  0.4048E-13  0.2000E+01
 -57.623  0.3285E-13  0.2000E+01
 -57.618  0.2664E-13  0.2000E+01
 -57.613  0.2159E-13  0.2000E+01
 -57.608  0.1748E-13  0.2000E+01
 -57.603  0.1415E-13  0.2000E+01
 -57.598  0.1144E-13  0.2000E+01
 -57.593  0.9249E-14  0.2000E+01
 -57.588  0.7470E-14  0.2000E+01
 -57.583  0.6029E-14  0.2000E+01
 -57.578  0.4863E-14  0.2000E+01
 -57.573  0.3920E-14  0.2000E+01
 -57.568  0.3157E-14  0.2000E+01
 -57.563  0.2542E-14  0.2000E+01
 -57.558  0.2044E-14  0.2000E+01
 -57.553  0.1643E-14  0.2000E+01
 -57.548  0.1320E-14  0.2000E+01
 -57.543  0.1060E-14  0.2000E+01
 -57.538  0.8502E-15  0.2000E+01
 -57.533  0.6816E-15  0.2000E+01
 -57.528  0.5461E-15  0.2000E+01
 -57.523  0.4372E-15  0.2000E+01
 -57.518  0.3498E-15  0.2000E+01
 -57.513  0.2797E-15  0.2000E+01
 -57.508  0.2235E-15  0.2000E+01
 -57.503  0.1784E-15  0.2000E+01
 -57.498  0.1424E-15  0.2000E+01
 -57.493  0.1135E-15  0.2000E+01
 -57.488  0.9046E-16  0.2000E+01
 -57.483  0.7204E-16  0.2000E+01
 -57.478  0.5732E-16  0.2000E+01
 -57.473  0.4559E-16  0.2000E+01
 -57.468  0.3623E-16  0.2000E+01
 -57.463  0.2877E-16  0.2000E+01
 -57.458  0.2283E-16  0.2000E+01
 -57.453  0.1811E-16  0.2000E+01
 -57.448  0.1435E-16  0.2000E+01
 -57.443  0.1137E-16  0.2000E+01
 -57.438  0.8997E-17  0.2000E+01
 -57.433  0.7116E-17  0.2000E+01
 -57.428  0.5625E-17  0.2000E+01
 -57.423  0.4443E-17  0.2000E+01
 -57.418  0.3507E-17  0.2000E+01
 -57.413  0.2767E-17  0.2000E+01
 -57.408  0.2181E-17  0.2000E+01
 -57.403  0.1718E-17  0.2000E+01
 -57.398  0.1352E-17  0.2000E+01
 -57.393  0.1064E-17  0.2000E+01
 -57.388  0.8365E-18  0.2000E+01
 -57.383  0.6572E-18  0.2000E+01
 -57.378  0.5160E-18  0.2000E+01
 -57.373  0.4048E-18  0.2000E+01
 -57.368  0.3174E-18  0.2000E+01
 -57.363  0.2487E-18  0.2000E+01
 -57.358  0.1947E-18  0.2000E+01
 -57.353  0.1524E-18  0.2000E+01
 -57.348  0.1191E-18  0.2000E+01
 -57.343  0.9310E-19  0.2000E+01
 -57.338  0.7270E-19  0.2000E+01
 -57.333  0.5673E-19  0.2000E+01
 -57.328  0.4424E-19  0.2000E+01
 -57.323  0.3448E-19  0.2000E+01
 -57.318  0.2685E-19  0.2000E+01
 -57.313  0.2090E-19  0.2000E+01
 -57.308  0.1625E-19  0.2000E+01
 -57.303  0.1263E-19  0.2000E+01
 -57.298  0.9811E-20  0.2000E+01
 -57.293  0.7615E-20  0.2000E+01
 -57.288  0.5906E-20  0.2000E+01
 -57.283  0.4578E-20  0.2000E+01
 -57.278  0.3546E-20  0.2000E+01
 -57.273  0.2745E-20  0.2000E+01
 -57.268  0.2123E-20  0.2000E+01
 -57.263  0.1641E-20  0.2000E+01
 -57.258  0.1268E-20  0.2000E+01
 -57.253  0.9789E-21  0.2000E+01
 -57.248  0.7552E-21  0.2000E+01
 -57.243  0.5822E-21  0.2000E+01
 -57.238  0.4486E-21  0.2000E+01
 -57.233  0.3453E-21  0.2000E+01
 -57.228  0.2657E-21  0.2000E+01
 -57.223  0.2043E-21  0.2000E+01
 -57.218  0.1570E-21  0.2000E+01
 -57.213  0.1205E-21  0.2000E+01
 -57.208  0.9248E-22  0.2000E+01
 -57.203  0.7091E-22  0.2000E+01
 -57.198  0.5434E-22  0.2000E+01
 -57.193  0.4161E-22  0.2000E+01
 -57.188  0.3184E-22  0.2000E+01
 -57.183  0.2435E-22  0.2000E+01
 -57.178  0.1861E-22  0.2000E+01
 -57.173  0.1421E-22  0.2000E+01
 -57.168  0.1085E-22  0.2000E+01
 -57.163  0.8273E-23  0.2000E+01
 -57.158  0.6305E-23  0.2000E+01
 -57.153  0.4802E-23  0.2000E+01
 -57.148  0.3655E-23  0.2000E+01
 -57.143  0.2780E-23  0.2000E+01
 -57.138  0.2113E-23  0.2000E+01
 -57.133  0.1605E-23  0.2000E+01
 -57.128  0.1218E-23  0.2000E+01
 -57.123  0.9243E-24  0.2000E+01
 -57.118  0.7007E-24  0.2000E+01
 -57.113  0.5308E-24  0.2000E+01
 -57.108  0.4018E-24  0.2000E+01
 -57.103  0.3040E-24  0.2000E+01
 -57.098  0.2298E-24  0.2000E+01
 -57.093  0.1736E-24  0.2000E+01
 -57.088  0.1311E-24  0.2000E+01
 -57.083  0.9891E-25  0.2000E+01
 -57.078  0.7457E-25  0.2000E+01
 -57.073  0.5619E-25  0.2000E+01
 -57.068  0.4231E-25  0.2000E+01
 -57.063  0.3184E-25  0.2000E+01
 -57.058  0.2394E-25  0.2000E+01
 -57.053  0.1799E-25  0.2000E+01
 -57.048  0.1351E-25  0.2000E+01
 -57.043  0.1014E-25  0.2000E+01
 -57.038  0.7602E-26  0.2000E+01
 -57.033  0.5697E-26  0.2000E+01
 -57.028  0.4267E-26  0.2000E+01
 -57.023  0.3193E-26  0.2000E+01
 -57.018  0.2388E-26  0.2000E+01
 -57.013  0.1785E-26  0.2000E+01
 -57.008  0.1333E-26  0.2000E+01
 -57.003  0.9950E-27  0.2000E+01
 -56.998  0.7422E-27  0.2000E+01
